-3.1569963,1.6283354,-0.6392697,1.7779891,3.9608617,0.4872647,4.0585093,3.9932125,-3.0276353,-2.3185186,-3.6205597,-1.7342019,-1.5742413,-4.4786773,-2.9706316,0.955699,-5.9857416,-3.699144,0.9665141,1.7934912,-1.91286,-0.56525487,3.1407902,-0.4106583,-1.2489663,-1.704195,-2.3949134,-4.552686,-3.6653159,-1.0337894,-2.3485405,-4.7295914,-3.662462,-2.0211594,-2.1831784,0.24612394,-1.931057,-1.2950499,-2.2980921,-1.7630122,-4.8474636,-4.823925,-2.1732621,-3.7170017,-3.6101942,-3.9483774,-2.5078897,-2.9813414,-3.9024408,-5.312004,-4.9811506,-3.0334003,0.07619524,-2.5921173,-1.6992912,-1.1196811,-4.6342173,-2.7380595,-5.3265276,-3.4587162,-1.8310584,-3.4523306,-3.6638994,-4.509152,1.12617,-0.058892727,-0.5111855,-2.1239445,-2.3099234,-2.3352356,1.0661073,-3.134694,-0.70962346,-2.517323,0.15789889,-2.9945545,-0.30105698,-6.0271335,-4.5601645,-0.7284192,-0.8938467,2.0206447,0.70886743,-0.98255444,-1.8567171,-2.3049047,-2.9023402,-0.2108345,0.14233598,0.987308,-1.0679946,-1.9745417,-2.5914276,-2.294459,-3.8635736,-2.4988098,-1.791023,-0.76820195,-0.10862386,-0.5956938,-0.077292085,-0.339244,-2.7371345,-3.559212,0.7535707,-3.9803383,-3.5843801,-1.438649,1.1844293,-1.3603964,-1.6635406,-2.579756,-0.36943865,2.7239308,-1.5712116,-1.9420236,-1.1308594,1.239148,3.0882792,-2.529079,-2.2684216,-3.143918,-3.740446,-2.5956414,-2.6804154,-3.147094,-0.6174976,1.091847,-1.7322459,-2.9042454,-4.016022,-2.995841,-3.8733778,-3.095611,-4.614095,-1.8127661,-6.012064,-0.9110385,-0.8631375,-3.5016468,-2.194016,-2.3424053,-3.454088,-3.8378034,-0.75630236,-2.1498497,0.63219,3.5076063,0.12789288,4.2127833,3.0283062,2.3163786,0.17125347,2.3408067,1.2341478,-0.5551969,0.40223408,-0.26063347,-1.0712845,-0.07928491,-0.3136893,-2.5069366,-1.8368452,-0.6017858,0.0042099357,-3.1470914,-0.17115252,-0.87337893,0.6619561,0.55624247,-0.04253441,-3.4307065,-0.50495315,-0.112908006,-2.1163435,-2.764322,-0.29847458,-1.6114528,-1.3729424,1.7842834,2.5175323,3.073577,-0.8844445,2.2805886,0.7964216,-0.39598024,2.3706055,-1.3353353,0.5183064,0.9904849,1.1952634,2.522441,1.055342,-0.7588326,0.33256674,-1.9249051,1.6919626,1.4835777,1.2055548,-0.21120797,-0.47528213,0.49804407,-3.0643024,0.99148965,0.6646527,-0.5886079,-0.5114918,2.2962985,-0.26050663,1.3850198,1.0487788,0.4621294,-0.3284446,-0.7536006,-0.76848596,-1.2037247,0.04955852,1.490351,0.12687555,-2.9044683,0.08583215,0.7902926,-1.5242403,0.9645255,-0.69645524,-2.5727463,-1.3147879,1.3027488,-0.98278487,-1.2107838,1.3321769,-3.3260865,-1.6929836,-1.008574,0.9980128,1.8448064,-1.6829498,-0.33274418,-1.3126962,-2.2031088,-0.9454319,-0.4380575,-2.7348495,2.403689,2.0416818,-2.8462758,1.3181088,-0.5205004,-1.2710966,-1.6924709,-3.219619,-2.346318,-0.29866013,1.0420388,-1.3539158,2.4393942,-2.717777,1.0498564,-0.27872467,-1.1498348,-1.203834,-1.2422884,-2.4878783,1.5257685,-4.03351,-2.9373438,-0.56152177,-1.0927469,-0.7530013,-1.0970616,-2.304929,-1.2285361,-3.0994554,-3.2892175,-2.857582,-4.950218,-5.6790047,-2.7079597,-4.8196692,-6.7150145,-0.7657378,-3.3800654,0.20026606,-2.0103147,0.8917701,1.090741,0.24598488,-0.87095463,-2.2131317,-2.7828686,-2.3599668,-0.69065976,-3.2327752,-2.276084,-4.20081,-2.0852933,-3.388154,2.146914,-3.2831643,-5.489625,-2.1816382,-1.7046837,1.2520821,-0.3235184,-3.0103033,-1.5687327,0.03491497,-1.2411317,-3.3219056,-4.219231,-4.288605,-0.17526984,-5.505056,-2.606741,-2.7334814,-1.1370343,-2.586136,-0.61801136,-3.761681,-3.3326995,-1.6194857,-2.24439,-1.780551,-2.4270782,-4.6373706,1.0536878,-1.8842695,-1.0190277,-1.5997276,0.68478143,-2.5425863,-4.351236,-3.598155,-1.2626095,-2.4963908,-4.6356983,-6.1803484,-5.9560556,-0.8605716,0.7720088,-2.4796047,-2.158728,0.3858585,-4.109328,-7.3605595,-1.4881653,-0.7222829,-4.3951693,-2.6466813,-1.8233263,-3.1114645,-3.1618783,-7.104983,-4.149857,-2.79201,0.1802702,0.59652746,-0.50692004,-0.15643132,0.059396036,-0.6203569,-0.3557301,-2.279421,-1.2365823,-1.3034918,-0.40180355,0.1796323,-2.2521067,-1.8723142,-5.6934123,-0.88116,-2.4591546,-1.9948126,-4.869954,-0.7359956,-5.6343575,-4.405521,-3.61922,-1.9216344,-1.3711429,-2.13343,-1.2170804,-3.3433235,-2.4777648,-2.6513445,-2.292742,-2.4963443,-2.9210296,-4.636142,-2.0686002,1.492365,-0.43228626,-1.5105139,2.3674455,0.33111143,-0.84957343,2.821806,-4.41995,0.7056563,-0.2784119,6.27537,5.839418,-0.57512,-1.7360398,-0.81746066,0.016245127,1.9964083,-1.7507852,-2.1501305,-2.1348078,3.4431527,-1.6984074,-0.026677057,5.5479565,2.1082995,8.113752,-1.0595435,0.06290549,5.140583,2.8027713,7.162519,0.13251206,-2.7243462,2.0342205,1.0421501,0.19931614,-2.687398,0.22221959,4.4505796,-2.3647954,6.026191,-1.0278928,5.412073,0.22005297,13.031238,2.451066,2.9037714,-4.215267,1.6874789,1.6745799,6.170199,-0.48562276,0.41784123,1.3498123,4.009612,-1.8084704,4.4167905,0.058053136,4.138048,1.2999935,-1.1247559,4.144407,2.6899447,7.3681536,-1.1666895,-2.3955777,0.31109625,1.4462123,4.6959343,-2.3743026,5.032318,-1.7890012,6.8098807,3.157084,6.22734,3.5636003,7.260137,2.4839735,-3.49369,-1.3251555,3.2302148,4.6216803,-1.7176781,0.14744854,1.6279397,0.6135008,0.080360115,-0.045767188,3.5671916,2.7140298,-0.54665077,1.6294723,0.117805004,1.3836236,-1.8595724,-1.6002234,1.6588308,-1.3737665,1.2404028,2.0410638,-1.9629275,4.0838265,0.83208406,1.1110947,-1.5483668,1.4624777,-1.9375247,-0.76922303,-3.694738,-3.6152768,2.6760526,-1.7084295,3.688349,6.3029757,1.874314,2.0386848,1.1691967,-0.71358144,3.1555614,-2.189826,-2.1719377,-1.3437393,-1.4477966,3.2928388,-1.7050204,3.9902465,2.6109765,2.3609555,-1.6984363,9.588587,1.0861868,1.3398674,-0.7947664,4.480217,0.55324256,6.1141768,-4.281392,0.51344943,3.3296468,-0.8505206,9.705845,1.1410291,1.5296111,-2.3133183,0.3610049,0.5960486,2.9178538,-1.3288082,1.5053302,-0.14277154,1.0108409,-0.62887776,2.9802012,1.3499987,4.414053,1.079262,3.5982125,-0.28769565,-1.8539668,-4.307858,1.8934216,3.8279855,5.986694,2.6552966,0.9098933,-3.6077447,-5.391109,0.68664616,2.0890768,-0.17718244,2.8711224,5.898093,-0.7667343,-3.4487138,0.46929106,-2.788333,-4.6048107,-1.4312247,2.020243,0.5757802,-2.5574875,9.97044,-0.7430543,3.1039238,-0.8718316,5.90164,-2.7058606,-0.20291331,3.3137488,-0.3485616,-2.181001,-6.7450337,-3.0504792,-1.3032986,2.822812,4.092828,3.7015967,-2.9520843,3.046894,7.5621142,6.0889306,2.9116778,0.93708634,0.09812349,-0.23528147,-0.7107421,-2.9856334,5.346915,2.0643237,-3.3378696,0.9347437,4.5032306,1.8615308,3.0959377,-2.4759579,3.9728968,-0.6562729,4.751279,1.0511668,0.6812618,-4.000919,5.4248066,-2.448228,-1.6471176,3.657856,0.9493892,10.790407,1.1369246,5.3373194,2.9137063,3.7301877,-1.0242621,-0.7331163,1.8521982,1.6361251,-1.4106383,-1.1828557,1.7306796,-3.6785507,-1.7116283,1.3790059,2.4513793,4.7802587,2.0280125,5.2072163,-2.4423752,4.1736007,4.6346865,1.6153514,5.0121493,4.5922627,-2.978343,7.1003036,-0.8967557,11.29935,-1.4296412,-1.2388675,-1.7609955,1.8600619,0.3284071,1.4754035,3.2892532,-1.9886613,2.3542247,0.90987265,-0.7216554,2.5823436,-1.0222456,-0.8295729,1.9098885,2.6821806,-3.4160116,-5.8264413,2.2400625,-3.0667884,0.97693384,-0.68767715,2.0241776,6.2569895,-0.37444484,0.85728157,0.6719756,0.24499027,3.8042667,7.314814,2.451547,-2.4309902,8.548448,2.362494,7.285003,2.1229625,5.646407,1.3028035,-2.799787,1.2463726,4.637458,-2.3916912,5.282455,-3.417142,-1.0398602,1.2960339,-3.3224902,9.80368,3.6052246,3.00993,-3.223854,1.5822988,4.2788563,1.2484164,-3.5616374,1.183596,3.0628557,5.1949472,0.9117173,-2.838842,1.1689541,-2.0302048,-2.803691,-0.8167769,2.4020233,3.5344527,4.741981,5.984174,3.8021564,1.9010718,3.679977,6.589954,-0.31264186,-4.210647,-2.3502305,6.505755,3.0918102,-0.5036199,2.6565175,0.6118314,-1.4299765,1.7878523,0.053739563,1.4193769,6.938134,0.66666675,-1.8414072,4.78166,-1.0362287,1.4510114,-2.0384483,1.9970773,2.3546321,0.79846203,0.42688185,3.9889815,3.5370967,0.71581393,4.0283833,3.4337802,-0.16892111,-0.4967496,4.726539,6.747015,3.7255354,1.8721741,0.1011233,0.41936746,1.6740396,-0.8042187,2.8302019,-0.8056159,3.2909448,-2.4688792,1.4242114,2.2323947,0.82545716,3.1046095,-4.3270807,0.1868268,1.6944051,1.2338576,1.1517497,2.3671703,4.110686,2.0942662,2.924458,0.48887876,4.6527424,3.4645987,4.7234716,3.7281635,1.0261805,1.1219848,1.1071087,-4.5855765,-2.7500792,-1.8929154,2.4298503,3.6971567,3.771671,2.650533,-1.9488322,4.5079207,0.067058325,-1.123209,4.651072,-1.1921372,5.426935,8.872276,-0.19120169,4.0427966,10.249777,8.719301,-2.6692388,-2.1755974,-3.0123491,6.4873877,2.3813126,-4.291429,5.338187,5.07471,1.6470072,3.0399415,4.19767,-0.44647405,-1.5045699,2.1728442,-2.015788,3.3351746,0.86312354,-1.8217471,1.51824,-1.2985508,7.9856725,-2.4115674,-3.4303932,-4.1454377,4.517145,1.5339923,3.177298,-3.6808467,2.9483333,0.5612259,3.7382083,-3.0039616,4.4177527,-3.7450957,0.17108154,-1.0203946,2.7580512,-0.63828045,7.9945617,6.3422947,6.5671253,0.42785448,5.3202515,5.831488,6.5831,3.5869157,3.7664604,3.4296281,3.1864371,-1.8720171,0.18725425,0.35292011,1.1050599,2.1204762,3.7277203,-2.6755533,-0.5193816,2.2216852,-0.109197855,-1.0870094,-5.6196966,1.9590664,0.3817258,6.0093136,2.0286055,1.2845231,-1.293288,2.170217,-2.234027,-2.9782717,-0.15135843,1.281651,-0.45750275,-1.7126781,0.5608531,-0.860576,-1.5542877,-1.4945153,2.1165116,-0.24577053,-0.86823106,1.9356627,1.2862959,-2.6690788,4.4935036,2.888768,-1.0069023,3.5706518,-1.2434173,1.6750762,-0.46423265,-1.4526459,4.9534106,3.3487399,2.9692397,0.21933424,1.3052467,0.86203265,3.3021152,3.853166,6.65877,4.458192,3.6016822,3.9038706,5.5030174,7.5581965,-2.7864828,-1.1486222,5.392718,1.6067764,-3.3411512,0.4277014,-0.6531306,6.2749004,-1.2469182,2.0474255,-1.0740469,-0.82311714,0.71723264,0.64035076,-1.532493,0.9723545,1.2724519,0.053055465,-4.211989,-0.2158671,-2.195933,0.89954114,-2.0492492,0.042553358,1.1315773,1.222508,-0.73222363,1.4242901,-0.5663867,-1.7479669,-1.7527177,-2.4099073,5.8338776,0.7482811,1.0642035,-0.6811614,0.48309994,-0.14839351,-2.430642,0.8099961,-1.0957948,1.8434446,-1.997813,-1.3469572,1.9400444,-0.9952481,-1.2264063,0.27529535,-1.0085357,-1.7280391,0.5007857,-2.997075,0.98316246,-1.3151978,-1.2669113,-2.356782,4.1239214,-0.69206023,-2.4033809,-3.4566636,-0.87790704,-0.71385247,1.6918344,-2.225202,1.4278677,1.7885255,1.7250838,5.18668,-0.11443061,-1.4883606,-2.038015,-2.0890005,-1.2766957,2.349347,-0.8032738,-2.0328722,-5.1210084,4.8914943,-1.4736617,2.7096345,-4.5738006,-2.8753357,-3.0183713,1.6931093,-1.3979115,-3.6083739,-0.9302715,-5.5514984,-1.2124282,-4.512801,1.1873829,-2.641817,0.19700459,-2.6355395,0.3425619,2.4038517